# x, y, omega
# 
405.023228 100.063092 -0.000249
410.159872 100.258224 -0.000820
415.250813 100.582316 -0.001308
420.476090 101.050937 -0.001772
425.662089 101.653190 -0.002226
430.615718 103.393754 -0.003188
435.674302 104.767459 -0.003917
441.088686 106.103146 -0.004617
445.937050 107.343488 -0.005235
450.898126 108.701555 -0.005871
456.705512 110.432863 -0.006624
462.270728 112.252388 -0.007356
467.533912 114.395071 -0.008198
472.869743 117.015026 -0.009142
478.089811 119.610142 -0.009967
483.893726 122.640132 -0.010866
488.639768 125.252690 -0.011596
493.728747 128.206487 -0.012378
499.163234 131.552931 -0.013218
504.941774 135.350071 -0.014120
510.387519 139.488511 -0.015088
515.766861 144.180070 -0.016118
519.771857 147.744624 -0.016836
523.902086 151.591198 -0.017579
528.144975 155.742430 -0.018349
532.485449 160.221922 -0.019146
536.905543 165.054042 -0.019970
541.384014 170.263666 -0.020822
545.112906 175.552532 -0.021702
549.217721 181.590779 -0.022604
553.294604 188.035408 -0.023523
557.307189 194.904335 -0.024457
561.215135 202.213423 -0.025406
564.974008 209.975747 -0.026366
568.535275 218.200770 -0.027335
570.815646 226.393099 -0.028307
573.452690 235.533676 -0.029272
575.726273 245.079825 -0.030224
576.709059 249.999391 -0.030693
577.579661 255.012705 -0.031156
578.330957 260.116211 -0.031614
578.955883 265.305844 -0.032064
578.761203 275.252545 -0.032938
578.797244 280.678410 -0.033357
578.679285 286.154647 -0.033764
578.401974 291.673897 -0.034157
577.960379 297.228321 -0.034534
577.350034 302.809620 -0.034896
576.566993 308.409062 -0.035240
575.607878 314.017511 -0.035567
573.634908 318.749653 -0.035874
572.159453 324.381616 -0.036160
570.498952 329.979106 -0.036422
568.653605 335.531234 -0.036660
566.624445 341.027028 -0.036873
564.413354 346.455511 -0.037060
562.023079 351.805769 -0.037220
559.457229 357.067025 -0.037353
556.720274 362.228721 -0.037457
553.094128 366.229646 -0.037532
549.878109 371.207697 -0.037576
546.505703 376.042295 -0.037588
542.985630 380.724069 -0.037567
539.327354 385.244338 -0.037513
535.541021 389.595177 -0.037426
531.637388 393.769472 -0.037306
527.627736 397.760973 -0.037153
522.917285 400.396004 -0.036966
518.574589 404.070135 -0.036746
514.157109 407.534253 -0.036492
509.678444 410.785592 -0.036203
505.152276 413.822472 -0.035881
500.592264 416.644281 -0.035526
496.011943 419.251458 -0.035140
491.424622 421.645455 -0.034723
486.843299 423.828696 -0.034277
481.844313 424.556765 -0.033802
477.144030 426.405429 -0.033298
467.866276 429.474306 -0.032209
458.828882 431.746761 -0.031019
450.113325 433.281587 -0.029741
441.788155 434.145275 -0.028389
433.454829 433.230073 -0.026975
425.676629 433.108694 -0.025506
418.401771 432.491798 -0.023995
411.653820 431.453782 -0.022457
405.444868 430.065959 -0.020903
399.776923 428.395071 -0.019346
394.643411 426.502227 -0.017797
389.883734 422.105463 -0.016265
383.306482 419.058487 -0.014009
377.749814 415.825041 -0.011823
373.132155 412.520748 -0.009729
369.363088 409.232858 -0.007743
365.496242 404.979094 -0.005286
362.221251 399.989765 -0.002544
360.067257 394.569214 0.000254
359.282403 389.004185 0.002864
359.785128 383.475305 0.005077
361.018874 378.604585 0.006608
362.598829 373.680373 0.007711
364.119454 368.153653 0.008110
366.688040 363.275528 0.008466
369.779634 358.677359 0.008530
372.742649 354.049732 0.008349
374.945058 349.334251 0.008037
376.375418 344.279407 0.007858
378.672385 339.611955 0.007547
380.948489 335.116693 0.007116
382.805795 329.929599 0.006602
383.952556 324.757052 0.006126
384.481815 319.657918 0.005729
384.936609 313.513114 0.005397
385.528238 307.518966 0.005245
386.678646 302.335791 0.004955
387.257321 297.209234 0.004691
387.324365 292.184499 0.004500
386.859071 286.823120 0.004409
385.855034 281.685464 0.004464
384.612405 276.749534 0.004655
384.243234 271.520187 0.004816
383.210120 266.481360 0.005226
381.126526 261.789590 0.005742
377.842748 257.636893 0.006505
374.816592 253.422344 0.007347
370.304363 251.082792 0.008826
365.305630 250.370612 0.010287
360.009196 250.228285 0.012092
355.022682 252.236524 0.013674
350.353217 254.568942 0.015301
346.158203 258.489747 0.016850
342.219534 262.850502 0.018280
339.195897 267.908903 0.019744
336.627260 273.293992 0.020974
334.965704 278.566844 0.022164
333.904894 284.102577 0.023076
333.202956 289.919280 0.023896
333.658907 295.580718 0.024593
334.491626 301.717262 0.025122
336.187646 307.249875 0.025474
338.672089 312.924458 0.025608
341.544110 318.123393 0.025514
345.457762 322.189222 0.025189
349.435626 326.010655 0.024625
354.619226 329.116884 0.023679
359.896108 331.705912 0.022457
365.035956 332.115771 0.021032
370.747266 332.765932 0.019181
376.101382 332.019902 0.016953
380.537993 329.507513 0.015016
384.820584 326.605035 0.012627
387.823193 321.868881 0.010504
390.497327 317.410900 0.008667
392.403645 312.522113 0.006944
393.389287 307.301779 0.005591
393.677445 301.880047 0.004599
393.789432 296.091115 0.004037
393.915613 290.176655 0.003707
394.439135 284.845422 0.003264
394.678749 279.355598 0.002911
394.676809 274.295752 0.002676
394.477875 269.134643 0.002519
393.682842 263.738823 0.002453
392.389960 258.764599 0.002547
390.718077 254.023084 0.002803
388.398266 249.145885 0.003267
385.430491 244.718274 0.003932
382.719247 239.704623 0.004647
379.421401 235.914470 0.005606
375.128847 233.239151 0.006740
370.169483 231.397799 0.007988
364.728677 230.439282 0.009338
359.590587 229.478211 0.010742
354.213427 230.660526 0.012323
348.912081 232.478456 0.013817
343.976088 234.736965 0.015180
339.015263 237.186928 0.016670
335.031166 240.312321 0.017940
330.892026 244.053933 0.019264
326.666375 248.485804 0.020642
322.974654 252.930426 0.022069
320.288127 257.300449 0.023153
317.713265 262.090167 0.024237
315.307346 267.309266 0.025314
313.431122 272.540434 0.026376
312.089500 278.136843 0.027406
310.961546 284.483482 0.028382
310.250100 291.124732 0.029293
310.591497 297.053677 0.030125
311.241592 304.037596 0.030853
312.435630 311.058340 0.031459
314.188487 318.035727 0.031930
317.046491 324.314697 0.032252
320.290035 330.823791 0.032401
324.012838 336.954071 0.032373
328.679212 342.030344 0.032161
333.543725 347.090381 0.031755
338.635283 351.522398 0.031161
344.188268 354.736904 0.030391
349.790066 357.946627 0.029448
355.325091 360.464137 0.028347
360.695131 362.329348 0.027112
366.236116 363.042095 0.025762
371.428864 363.837536 0.024311
377.785270 364.096261 0.022265
383.410529 363.602706 0.020148
388.778046 362.010662 0.018009
394.453922 360.181887 0.015349
399.100808 357.867743 0.012783
403.389893 354.707063 0.009909
406.164393 350.181397 0.007734
409.452152 345.901450 0.005023
412.318597 341.180535 0.002102
414.223828 336.136550 -0.000423
415.504526 330.896850 -0.002456
416.512522 325.967679 -0.003904
416.720381 320.807382 -0.004605
416.639970 315.529210 -0.005276
416.936587 310.355911 -0.005891
418.060933 305.382640 -0.006352
420.102301 300.739320 -0.006865
420.938137 295.677623 -0.007241
422.707868 290.966743 -0.007881
425.511077 286.562342 -0.008639
428.200672 282.119639 -0.009532
432.868088 279.665173 -0.010909
437.882443 278.802471 -0.012579
442.559762 280.700206 -0.014092
446.251266 284.123498 -0.015925
448.472175 288.795231 -0.017457
449.466717 294.170766 -0.018593
449.195076 299.650418 -0.019200
447.782020 304.802641 -0.019523
445.808593 309.600781 -0.019488
442.125754 313.616109 -0.019081
437.561165 316.258021 -0.018182
432.729893 318.504864 -0.016879
427.679026 318.041827 -0.015320
422.807310 316.658832 -0.013286
418.788154 313.103472 -0.011595
415.716571 309.151252 -0.009845
414.026394 304.179478 -0.008715
412.035413 299.377461 -0.007603
410.647224 294.155551 -0.006540
410.047972 289.121024 -0.005772
409.997046 283.912104 -0.005211
409.941871 278.047349 -0.004907
409.573670 272.657791 -0.004643
409.433346 267.448519 -0.004395
409.695870 262.106901 -0.004232
410.383174 256.670417 -0.004180
411.408305 251.729603 -0.004248
412.885353 246.779771 -0.004443
414.909469 241.867796 -0.004785
415.984786 236.755670 -0.005091
418.682584 232.033379 -0.005726
422.498116 228.007176 -0.006580
427.065515 224.781748 -0.007607
432.247722 222.435637 -0.008784
437.349229 220.161219 -0.010061
442.923073 219.905937 -0.011553
448.603011 220.452917 -0.013012
454.020670 221.603238 -0.014383
458.813000 223.098162 -0.015596
464.474485 225.207734 -0.017257
469.553654 228.126806 -0.018686
475.007150 231.959707 -0.020212
479.261036 235.458611 -0.021425
483.190630 239.220937 -0.022694
487.164268 244.027766 -0.024002
491.069316 249.519582 -0.025341
494.821911 255.672768 -0.026702
497.722914 261.748666 -0.028075
499.644661 266.706348 -0.028984
501.370511 271.942154 -0.029879
502.866184 277.448341 -0.030755
504.096757 283.212719 -0.031605
504.693071 288.755084 -0.032423
504.908249 294.900149 -0.033197
504.768329 301.180795 -0.033913
504.249939 307.561955 -0.034564
503.334072 314.004596 -0.035145
501.540177 319.918668 -0.035645
499.526808 326.289138 -0.036052
497.102764 332.541956 -0.036360
494.279482 338.629100 -0.036562
490.779750 343.905235 -0.036656
486.958393 349.479618 -0.036632
482.822514 354.715621 -0.036486
478.416032 359.579200 -0.036218
473.523181 363.399024 -0.035827
468.495459 367.509698 -0.035314
463.342303 371.153553 -0.034679
458.122750 374.327063 -0.033929
452.894426 377.035361 -0.033070
447.524611 378.607067 -0.032112
442.195678 380.502122 -0.031060
436.999992 381.957577 -0.029921
431.981736 383.004636 -0.028707
424.866960 383.887167 -0.026771
417.971587 382.655087 -0.024731
411.716831 382.177983 -0.022616
406.140018 381.195862 -0.020464
401.252223 379.832350 -0.018310
395.782808 377.607254 -0.015493
391.054508 373.738475 -0.012789
386.348555 370.383051 -0.009608
382.455880 366.323656 -0.006168
379.808722 361.807221 -0.002755
378.481994 356.505393 0.000664
378.599008 351.201733 0.003310
379.514607 345.830035 0.005109
380.440518 340.723645 0.006103
381.188493 335.768543 0.006464
382.479773 330.564261 0.006679
383.491298 325.591021 0.006673
384.014105 320.193454 0.006534
384.018141 314.925622 0.006407
384.501161 309.489982 0.006356
385.032940 304.415548 0.006223
384.689615 299.411153 0.006120
383.266061 294.280898 0.006195
381.127457 289.008610 0.006532
379.798171 283.848559 0.006969
377.024901 279.647523 0.007710
372.895724 276.256526 0.008739
369.253114 272.487730 0.009986
364.058665 271.591571 0.011549
359.066824 271.947841 0.013419
354.357123 274.636368 0.015117
350.505296 277.885634 0.016914
347.560551 282.028066 0.018255
345.829261 286.754486 0.019395
344.492416 291.811565 0.020295
344.482688 297.384965 0.021162
344.766266 302.401739 0.021642
346.480899 307.261036 0.021991
348.324735 311.963551 0.022061
351.546102 316.119149 0.021876
355.160061 320.582489 0.021373
360.121729 323.536816 0.020455
364.577592 325.874114 0.019358
369.749265 326.246999 0.017872
375.233607 326.279111 0.015970
379.938013 323.919284 0.013995
384.663559 321.147338 0.011811
387.964826 317.362620 0.009782
390.070216 311.879645 0.008360
392.635001 307.062237 0.006782
394.395172 301.843867 0.005424
395.453649 296.926972 0.004413
396.140642 291.871704 0.003599
396.550501 286.719765 0.002962
396.750843 281.496851 0.002481
396.960528 276.008203 0.002163
397.362059 270.252554 0.001954
397.650679 264.611581 0.001761
398.102954 259.254128 0.001559
399.029016 254.220843 0.001272
399.979721 249.115441 0.000950
401.011934 243.946742 0.000598
402.051926 238.911493 0.000213
403.047454 233.745653 -0.000215
404.357725 228.586292 -0.000661
405.997795 223.475480 -0.001168
407.901469 218.500158 -0.001750
409.518157 213.550022 -0.002291
411.072625 208.504605 -0.002811
415.090375 205.397210 -0.003890
420.230193 203.725474 -0.005160
425.754798 202.782377 -0.006477
431.063194 202.495077 -0.007719
436.437247 202.715439 -0.008964
442.293343 203.032903 -0.010399
447.353700 203.097341 -0.011737
453.188105 203.943276 -0.013230
458.403446 205.344091 -0.014555
464.151928 207.398728 -0.016013
468.809763 209.453315 -0.017202
474.664273 212.439727 -0.018915
479.517594 215.725038 -0.020287
484.589130 219.645901 -0.021734
489.826339 224.282669 -0.023260
493.375762 227.812551 -0.024319
498.059945 233.466127 -0.025964
501.220204 237.889345 -0.027085
504.319714 242.701526 -0.028223
507.318619 247.917620 -0.029375
510.172605 253.549226 -0.030535
512.366364 259.244323 -0.031697
514.548331 265.727854 -0.032849
516.426749 272.592847 -0.033981
517.946742 279.823258 -0.035085
519.052870 287.394834 -0.036152
519.412868 295.292145 -0.037168
519.274251 303.447112 -0.038114
518.566520 311.770210 -0.038979
517.254630 320.197228 -0.039750
514.859239 328.139567 -0.040413
512.060076 336.564052 -0.040951
508.613892 344.819840 -0.041351
504.206702 352.220732 -0.041603
499.329360 359.937590 -0.041694
493.896835 367.202857 -0.041613
487.976204 373.947552 -0.041357
481.377398 379.446659 -0.040924
474.512034 385.052553 -0.040311
467.408655 389.971584 -0.039519
460.168958 394.192625 -0.038555
452.693510 397.010977 -0.037429
445.229970 399.834264 -0.036150
437.919440 401.983890 -0.034728
430.845191 403.509497 -0.033180
424.078188 404.470128 -0.031525
417.428233 404.251957 -0.029781
411.185009 404.354693 -0.027961
405.374929 404.066395 -0.026084
400.021940 403.456818 -0.024168
392.874156 402.084142 -0.021263
386.737314 399.620169 -0.018369
381.392816 396.944975 -0.015529
375.597592 394.196012 -0.011881
371.323006 391.515220 -0.008461
367.330086 387.940847 -0.003879
365.600594 383.201053 0.002577
369.479710 379.692042 0.007279
374.090369 377.160368 0.008702
378.202871 373.796900 0.008972
383.355095 371.563695 0.008632
387.768187 369.045764 0.007873
391.856491 365.717836 0.006729
394.897633 360.932226 0.005619
396.701646 356.059773 0.004912
399.589288 351.659241 0.003637
401.786597 346.683245 0.002316
403.181207 341.710995 0.001187
404.098598 336.301692 0.000199
404.454952 331.308021 -0.000480
404.652140 326.294761 -0.000962
405.081930 320.953514 -0.001367
405.575504 315.740277 -0.001703
405.873768 310.500171 -0.001988
406.327458 305.388301 -0.002236
406.277270 300.246876 -0.002407
405.700852 295.119301 -0.002512
405.353945 289.928858 -0.002511
405.329330 284.828026 -0.002487
405.617752 279.829225 -0.002507
406.295341 274.547414 -0.002624
407.401390 269.431476 -0.002879
410.484018 265.338723 -0.003754
413.435860 261.005296 -0.004910
415.669127 256.429046 -0.005783
419.018587 252.679175 -0.006841
423.480915 249.926239 -0.008201
428.032795 247.620086 -0.009855
433.335935 247.382958 -0.011686
438.617376 248.203140 -0.013465
444.061233 249.812062 -0.015559
448.686006 252.448622 -0.017314
452.854359 255.440224 -0.018911
456.717788 258.742263 -0.020627
460.672110 263.570340 -0.022422
463.777732 268.139015 -0.023903
466.336142 273.094535 -0.025405
468.591328 279.035176 -0.026884
470.010175 283.886362 -0.027962
471.141692 290.517363 -0.029334
471.488999 296.097852 -0.030279
471.406111 301.861275 -0.031131
470.657937 307.361688 -0.031872
469.325360 313.350666 -0.032476
467.470885 319.259500 -0.032919
465.103539 325.005495 -0.033187
461.887823 330.120714 -0.033267
458.306732 335.306726 -0.033136
454.343125 340.042329 -0.032792
449.712251 343.802859 -0.032234
444.940164 347.412583 -0.031456
440.033480 350.346811 -0.030473
434.894178 352.164524 -0.029302
429.803295 353.822112 -0.027952
423.362482 355.128781 -0.025923
417.375298 355.070216 -0.023700
411.728863 354.868407 -0.021343
406.782148 354.046862 -0.018909
401.614163 352.400983 -0.015864
397.428538 349.392745 -0.012917
393.183703 346.574032 -0.009586
389.332806 342.628557 -0.005615
386.643472 337.865712 -0.001569
385.272467 332.670423 0.001955
384.763020 327.648559 0.004436
384.270171 322.479900 0.006161
384.377285 317.328683 0.006905
384.836479 312.229620 0.007572
385.135186 307.216922 0.007800
385.809787 302.190986 0.007847
385.532895 297.109511 0.007834
384.563982 292.049513 0.008090
382.860902 287.330720 0.008758
380.122611 283.131510 0.009963
375.591171 280.850939 0.012012
370.532902 281.932065 0.014587
366.804329 285.617135 0.016905
364.841590 290.562355 0.018596
364.359718 295.865372 0.019859
365.213212 301.084613 0.020560
367.423623 306.012136 0.020644
371.165988 309.942672 0.019935
375.614005 312.632735 0.018449
380.655836 312.915550 0.016240
385.195463 310.287768 0.013594
388.427338 306.027303 0.010918
390.743911 301.550225 0.008824
391.712657 296.357021 0.007144
392.080773 291.159297 0.006379
392.489895 286.062590 0.005617
392.094207 280.740636 0.005196
390.978845 275.702379 0.005173
389.878928 270.225822 0.005419
388.256832 265.259761 0.005977
385.415568 260.968984 0.006824
381.129112 258.173523 0.008159
376.662278 255.686450 0.009945
371.653565 255.560660 0.011836
366.311851 256.555379 0.013958
361.391952 258.758386 0.016164
356.570016 262.042857 0.018314
352.487305 265.685641 0.020323
349.232818 269.806225 0.022066
346.088660 274.714900 0.023842
343.736077 280.158329 0.025615
342.277128 285.248823 0.026968
341.211522 290.741617 0.028236
341.059288 296.234835 0.029382
341.409786 302.214702 0.030354
342.609076 307.926595 0.031123
344.557918 313.846393 0.031639
347.103980 319.493223 0.031875
350.598288 324.353852 0.031810
354.496347 328.924168 0.031421
358.897399 332.418035 0.030719
363.554181 335.600352 0.029708
368.192615 338.003591 0.028419
374.103059 339.659138 0.026483
379.616279 340.654680 0.024250
384.628487 339.990166 0.021833
389.989126 339.285219 0.018808
394.871213 337.494884 0.015298
398.588472 334.034376 0.012010
402.453340 330.313670 0.007857
404.882831 325.560535 0.003916
405.901169 320.448171 0.000940
406.160518 315.439314 -0.000944
406.256498 310.111421 -0.002141
406.547043 304.811368 -0.002851
407.238026 299.539007 -0.003365
408.384917 294.413793 -0.003883
409.600342 288.982913 -0.004450
410.176139 283.898905 -0.004933
411.626772 278.809040 -0.005574
414.013956 274.150676 -0.006436
416.902546 269.894999 -0.007494
420.444036 266.056901 -0.008987
425.264971 264.214140 -0.010781
430.196953 263.127674 -0.012768
435.451991 264.290682 -0.014922
440.742763 266.271711 -0.017197
444.913724 269.431767 -0.019147
448.684490 273.118843 -0.020924
451.926014 277.525887 -0.022772
454.432317 282.207097 -0.024306
456.403562 287.296012 -0.025810
457.686064 293.315452 -0.027213
458.267976 298.505936 -0.028228
457.952610 303.570289 -0.029115
456.970907 309.087548 -0.029818
455.314804 314.208410 -0.030312
452.943842 319.603937 -0.030563
450.076800 324.668086 -0.030548
446.571608 328.945913 -0.030263
442.602552 333.120359 -0.029693
438.415001 336.661629 -0.028846
433.758153 339.215086 -0.027739
429.164716 341.482269 -0.026386
423.568203 342.972875 -0.024419
418.040571 343.906183 -0.022206
412.228674 343.939947 -0.019342
407.220222 342.279354 -0.016411
402.291777 340.503638 -0.013041
397.855152 337.512751 -0.009035
394.693259 333.098995 -0.004957
393.421563 328.017249 -0.002864
391.561999 323.029050 0.000137
390.582281 317.549670 0.002258
390.411532 312.327843 0.003181
390.379996 307.270181 0.004448
389.535330 302.116722 0.005188
388.373766 297.124986 0.005816
387.772350 291.942833 0.006253
386.416946 286.879317 0.006905
383.812159 282.582541 0.007751
381.263595 278.102361 0.008970
376.830489 275.111913 0.010805
371.563478 274.931087 0.013190
366.845129 276.819472 0.015423
362.686720 280.329056 0.017597
359.952333 284.720043 0.019291
358.047254 289.682539 0.020906
357.062203 294.813743 0.022019
357.445927 300.284914 0.022976
358.663325 305.377699 0.023463
360.882316 310.415181 0.023519
364.468577 314.706390 0.023051
368.598881 318.205289 0.022025
373.230985 320.647798 0.020498
378.236921 320.991901 0.018398
383.241857 320.291836 0.015587
387.557492 317.234554 0.012811
390.548594 312.812348 0.009952
392.731746 307.918331 0.007825
393.865554 302.873999 0.006071
394.011088 297.540087 0.004919
393.945022 292.071214 0.004428
394.139774 286.954513 0.004033
393.981964 281.588836 0.003733
393.360074 276.496033 0.003653
392.223787 271.348145 0.003795
390.408073 266.305203 0.004196
388.366236 261.548938 0.004793
386.058033 257.017280 0.005605
382.027855 253.440303 0.006969
